Time (s),Amplitude
0.0,10535
2.267821816693997e-05,10252
4.535643633387994e-05,9748
6.803465450081991e-05,9141
9.071287266775988e-05,8456
0.00011339109083469985,7584
0.00013606930900163981,6503
0.0001587475271685798,5335
0.00018142574533551976,4249
0.00020410396350245972,3280
0.0002267821816693997,2390
0.00024946039983633967,1485
0.00027213861800327963,503
0.0002948168361702196,-567
0.0003174950543371596,-1744
0.00034017327250409956,-2959
0.0003628514906710395,-4162
0.0003855297088379795,-5330
0.00040820792700491944,-6462
0.00043088614517185946,-7495
0.0004535643633387994,-8358
0.0004762425815057394,-8991
0.0004989207996726793,-9422
0.0005215990178396193,-9749
0.0005442772360065593,-10095
0.0005669554541734992,-10462
0.0005896336723404392,-10738
0.0006123118905073792,-10822
0.0006349901086743192,-10683
0.0006576683268412592,-10388
0.0006803465450081991,-9959
0.0007030247631751391,-9310
0.000725702981342079,-8401
0.000748381199509019,-7311
0.000771059417675959,-6150
0.0007937376358428989,-4997
0.0008164158540098389,-3914
0.0008390940721767788,-2935
0.0008617722903437189,-2076
0.0008844505085106589,-1261
0.0009071287266775988,-358
0.0009298069448445388,657
0.0009524851630114788,1735
0.0009751633811784187,2848
0.0009978415993453587,4055
0.0010205198175122986,5348
0.0010431980356792386,6634
0.0010658762538461786,7703
0.0010885544720131185,8457
0.0011112326901800585,8966
0.0011339109083469984,9311
0.0011565891265139384,9558
0.0011792673446808784,9735
0.0012019455628478183,9871
0.0012246237810147585,9972
0.0012473019991816985,10061
0.0012699802173486384,10105
0.0012926584355155784,10039
0.0013153366536825183,9806
0.0013380148718494583,9299
0.0013606930900163983,8478
0.0013833713081833382,7400
0.0014060495263502782,6172
0.0014287277445172181,4914
0.001451405962684158,3710
0.001474084180851098,2519
0.001496762399018038,1324
0.001519440617184978,213
0.001542118835351918,-789
0.001564797053518858,-1707
0.0015874752716857979,-2650
0.0016101534898527378,-3676
0.0016328317080196778,-4737
0.0016555099261866177,-5751
0.0016781881443535577,-6714
0.0017008663625204979,-7604
0.0017235445806874378,-8377
0.0017462227988543778,-8995
0.0017689010170213178,-9460
0.0017915792351882577,-9812
0.0018142574533551977,-10054
0.0018369356715221376,-10139
0.0018596138896890776,-10093
0.0018822921078560176,-10042
0.0019049703260229575,-10004
0.0019276485441898975,-9864
0.0019503267623568374,-9481
0.0019730049805237776,-8838
0.0019956831986907174,-8048
0.0020183614168576575,-7169
0.0020410396350245973,-6187
0.0020637178531915375,-5061
0.002086396071358477,-3833
0.0021090742895254174,-2596
0.002131752507692357,-1398
0.0021544307258592973,-281
0.002177108944026237,757
0.002199787162193177,1765
0.002222465380360117,2787
0.002245143598527057,3847
0.002267821816693997,4967
0.002290500034860937,6038
0.002313178253027877,6988
0.002335856471194817,7829
0.0023585346893617567,8561
0.002381212907528697,9194
0.0024038911256956366,9625
0.002426569343862577,9750
0.002449247562029517,9648
0.0024719257801964567,9508
0.002494603998363397,9426
0.0025172822165303367,9379
0.002539960434697277,9269
0.0025626386528642166,9043
0.0025853168710311568,8751
0.0026079950891980965,8360
0.0026306733073650367,7796
0.0026533515255319764,7025
0.0026760297436989166,6056
0.0026987079618658563,4897
0.0027213861800327965,3572
0.0027440643981997363,2148
0.0027667426163666764,787
0.002789420834533616,-378
0.0028120990527005564,-1401
0.002834777270867496,-2392
0.0028574554890344363,-3402
0.002880133707201376,-4380
0.002902811925368316,-5280
0.0029254901435352564,-6166
0.002948168361702196,-7079
0.0029708465798691363,-7997
0.002993524798036076,-8844
0.003016203016203016,-9504
0.003038881234369956,-9914
0.003061559452536896,-10097
0.003084237670703836,-10083
0.003106915888870776,-9953
0.003129594107037716,-9747
0.003152272325204656,-9461
0.0031749505433715957,-9113
0.003197628761538536,-8695
0.0032203069797054756,-8226
0.003242985197872416,-7748
0.0032656634160393556,-7233
0.0032883416342062957,-6566
0.0033110198523732355,-5687
0.0033336980705401757,-4596
0.0033563762887071154,-3404
0.0033790545068740556,-2229
0.0034017327250409958,-1069
0.0034244109432079355,99
0.0034470891613748757,1241
0.0034697673795418154,2315
0.0034924455977087556,3325
0.0035151238158756953,4301
0.0035378020340426355,5288
0.0035604802522095753,6244
0.0035831584703765154,7150
0.003605836688543455,8041
0.0036285149067103954,8848
0.003651193124877335,9466
0.0036738713430442753,9820
0.003696549561211215,9957
0.003719227779378155,9961
0.003741905997545095,9829
0.003764584215712035,9533
0.003787262433878975,9099
0.003809940652045915,8624
0.0038326188702128548,8202
0.003855297088379795,7808
0.003877975306546735,7345
0.003900653524713675,6755
0.003923331742880615,5997
0.003946009961047555,5073
0.0039686881792144945,4023
0.003991366397381435,2853
0.004014044615548375,1633
0.004036722833715315,425
0.004059401051882254,-759
0.0040820792700491946,-1878
0.004104757488216135,-2893
0.004127435706383075,-3794
0.004150113924550014,-4597
0.004172792142716954,-5386
0.004195470360883895,-6269
0.004218148579050835,-7182
0.004240826797217774,-8023
0.004263505015384714,-8745
0.004286183233551654,-9358
0.004308861451718595,-9893
0.004331539669885534,-10286
0.004354217888052474,-10392
0.004376896106219414,-10196
0.004399574324386354,-9817
0.004422252542553295,-9337
0.004444930760720234,-8809
0.004467608978887174,-8229
0.004490287197054114,-7627
0.0045129654152210544,-7017
0.004535643633387994,-6351
0.004558321851554934,-5569
0.004581000069721874,-4685
0.004603678287888814,-3760
0.004626356506055754,-2764
0.004649034724222694,-1644
0.004671712942389634,-414
0.004694391160556574,832
0.0047170693787235134,1968
0.004739747596890454,2950
0.004762425815057394,3856
0.004785104033224334,4741
0.004807782251391273,5589
0.0048304604695582135,6382
0.004853138687725154,7098
0.004875816905892094,7761
0.004898495124059034,8403
0.004921173342225973,9006
0.0049438515603929135,9507
0.004966529778559854,9847
0.004989207996726794,9967
0.005011886214893733,9847
0.005034564433060673,9547
0.0050572426512276135,9126
0.005079920869394554,8644
0.005102599087561493,8116
0.005125277305728433,7475
0.005147955523895373,6715
0.0051706337420623135,5902
0.005193311960229253,5102
0.005215990178396193,4279
0.005238668396563133,3355
0.005261346614730073,2259
0.005284024832897013,1062
0.005306703051063953,-163
0.005329381269230893,-1371
0.005352059487397833,-2523
0.005374737705564773,-3573
0.005397415923731713,-4488
0.005420094141898653,-5300
0.005442772360065593,-6028
0.005465450578232533,-6687
0.0054881287963994725,-7263
0.005510807014566413,-7809
0.005533485232733353,-8386
0.005556163450900293,-8991
0.005578841669067232,-9515
0.0056015198872341725,-9842
0.005624198105401113,-9956
0.005646876323568053,-9876
0.005669554541734992,-9643
0.005692232759901932,-9244
0.0057149109780688725,-8673
0.005737589196235813,-7971
0.005760267414402752,-7224
0.005782945632569692,-6471
0.005805623850736632,-5727
0.005828302068903573,-4996
0.005850980287070513,-4214
0.005873658505237452,-3333
0.005896336723404392,-2311
0.005919014941571332,-1143
0.005941693159738273,82
0.005964371377905212,1293
0.005987049596072152,2471
0.006009727814239092,3602
0.006032406032406032,4671
0.006055084250572972,5596
0.006077762468739912,6303
0.006100440686906852,6859
0.006123118905073792,7382
0.006145797123240732,7909
0.006168475341407672,8390
0.006191153559574612,8769
0.006213831777741552,9080
0.006236509995908491,9345
0.006259188214075432,9511
0.006281866432242372,9507
0.006304544650409312,9284
0.006327222868576252,8883
0.006349901086743191,8331
0.006372579304910132,7632
0.006395257523077072,6837
0.006417935741244012,6044
0.006440613959410951,5282
0.0064632921775778914,4534
0.006485970395744832,3700
0.006508648613911772,2754
0.006531326832078711,1761
0.006554005050245651,727
0.0065766832684125915,-393
0.006599361486579532,-1601
0.006622039704746471,-2843
0.006644717922913411,-4020
0.006667396141080351,-5027
0.0066900743592472915,-5888
0.006712752577414231,-6620
0.006735430795581171,-7247
0.006758109013748111,-7789
0.006780787231915051,-8254
0.0068034654500819915,-8655
0.006826143668248931,-9012
0.006848821886415871,-9304
0.006871500104582811,-9500
0.006894178322749751,-9604
0.006916856540916691,-9565
0.006939534759083631,-9310
0.006962212977250571,-8812
0.006984891195417511,-8133
0.0070075694135844505,-7394
0.007030247631751391,-6671
0.007052925849918331,-5930
0.007075604068085271,-5108
0.00709828228625221,-4239
0.0071209605044191505,-3379
0.007143638722586091,-2527
0.007166316940753031,-1633
0.00718899515891997,-661
0.00721167337708691,401
0.0072343515952538505,1528
0.007257029813420791,2682
0.007279708031587731,3837
0.00730238624975467,4908
0.00732506446792161,5838
0.0073477426860885505,6656
0.007370420904255491,7365
0.00739309912242243,7941
0.00741577734058937,8358
0.00743845555875631,8614
0.0074611337769232506,8807
0.00748381199509019,9013
0.00750649021325713,9184
0.00752916843142407,9271
0.00755184664959101,9211
0.00757452486775795,8960
0.00759720308592489,8549
0.00761988130409183,7992
0.00764255952225877,7288
0.0076652377404257096,6459
0.00768791595859265,5536
0.00771059417675959,4541
0.00773327239492653,3539
0.00775595061309347,2574
0.00777862883126041,1688
0.00780130704942735,867
0.007823985267594289,11
0.00784666348576123,-955
0.00786934170392817,-2001
0.00789201992209511,-3044
0.00791469814026205,-4054
0.007937376358428989,-5047
0.00796005457659593,-6026
0.00798273279476287,-6910
0.008005411012929809,-7604
0.00802808923109675,-8104
0.008050767449263689,-8478
0.00807344566743063,-8799
0.00809612388559757,-9041
0.008118802103764509,-9195
0.00814148032193145,-9287
0.008164158540098389,-9307
0.008186836758265328,-9211
0.00820951497643227,-8948
0.008232193194599209,-8514
0.00825487141276615,-7962
0.008277549630933089,-7282
0.008300227849100028,-6423
0.00832290606726697,-5425
0.008345584285433909,-4379
0.00836826250360085,-3377
0.00839094072176779,-2457
0.008413618939934728,-1558
0.00843629715810167,-634
0.008458975376268609,293
0.008481653594435548,1221
0.00850433181260249,2161
0.008527010030769428,3141
0.00854968824893637,4160
0.008572366467103309,5157
0.008595044685270248,6057
0.00861772290343719,6843
0.008640401121604128,7489
0.008663079339771068,7985
0.008685757557938009,8318
0.008708435776104948,8536
0.00873111399427189,8701
0.008753792212438829,8817
0.008776470430605768,8855
0.008799148648772709,8798
0.008821826866939648,8683
0.00884450508510659,8532
0.008867183303273529,8278
0.008889861521440468,7793
0.008912539739607409,7060
0.008935217957774348,6153
0.008957896175941287,5164
0.008980574394108229,4137
0.009003252612275168,3053
0.009025930830442109,1963
0.009048609048609048,941
0.009071287266775988,-21
0.009093965484942929,-953
0.009116643703109868,-1857
0.009139321921276807,-2756
0.009162000139443748,-3655
0.009184678357610688,-4572
0.009207356575777629,-5501
0.009230034793944568,-6360
0.009252713012111507,-7088
0.009275391230278448,-7685
0.009298069448445388,-8162
0.009320747666612329,-8529
0.009343425884779268,-8771
0.009366104102946207,-8860
0.009388782321113148,-8826
0.009411460539280088,-8743
0.009434138757447027,-8643
0.009456816975613968,-8512
0.009479495193780907,-8306
0.009502173411947848,-7966
0.009524851630114788,-7477
0.009547529848281727,-6833
0.009570208066448668,-6054
0.009592886284615607,-5166
0.009615564502782547,-4212
0.009638242720949488,-3199
0.009660920939116427,-2114
0.009683599157283368,-1000
0.009706277375450307,62
0.009728955593617247,1023
0.009751633811784188,1918
0.009774312029951127,2846
0.009796990248118068,3820
0.009819668466285007,4753
0.009842346684451947,5597
0.009865024902618888,6372
0.009887703120785827,7091
0.009910381338952766,7721
0.009933059557119707,8198
0.009955737775286647,8492
0.009978415993453588,8641
0.010001094211620527,8664
0.010023772429787466,8564
0.010046450647954407,8397
0.010069128866121347,8213
0.010091807084288286,8014
0.010114485302455227,7759
0.010137163520622166,7378
0.010159841738789107,6868
0.010182519956956047,6285
0.010205198175122986,5617
0.010227876393289927,4819
0.010250554611456866,3872
0.010273232829623807,2797
0.010295911047790747,1696
0.010318589265957686,628
0.010341267484124627,-398
0.010363945702291566,-1390
0.010386623920458506,-2335
0.010409302138625447,-3230
0.010431980356792386,-4084
0.010454658574959327,-4935
0.010477336793126266,-5781
0.010500015011293206,-6584
0.010522693229460147,-7315
0.010545371447627086,-7957
0.010568049665794025,-8499
0.010590727883960966,-8865
0.010613406102127906,-8996
0.010636084320294847,-8932
0.010658762538461786,-8771
0.010681440756628725,-8561
0.010704118974795666,-8282
0.010726797192962606,-7884
0.010749475411129547,-7433
0.010772153629296486,-7000
0.010794831847463425,-6555
0.010817510065630366,-6026
0.010840188283797306,-5366
0.010862866501964245,-4571
0.010885544720131186,-3683
0.010908222938298125,-2711
0.010930901156465066,-1670
0.010953579374632006,-616
0.010976257592798945,397
0.010998935810965886,1362
0.011021614029132825,2292
0.011044292247299765,3190
0.011066970465466706,4048
0.011089648683633645,4853
0.011112326901800586,5646
0.011135005119967525,6432
0.011157683338134465,7179
0.011180361556301406,7824
0.011203039774468345,8313
0.011225717992635286,8646
0.011248396210802225,8840
0.011271074428969165,8895
0.011293752647136106,8787
0.011316430865303045,8521
0.011339109083469984,8126
0.011361787301636925,7680
0.011384465519803865,7195
0.011407143737970806,6675
0.011429821956137745,6133
0.011452500174304684,5529
0.011475178392471625,4829
0.011497856610638565,4000
0.011520534828805504,3062
0.011543213046972445,2091
0.011565891265139384,1122
0.011588569483306325,119
0.011611247701473265,-900
0.011633925919640204,-1874
0.011656604137807145,-2745
0.011679282355974084,-3515
0.011701960574141025,-4262
0.011724638792307965,-5030
0.011747317010474904,-5791
0.011769995228641845,-6516
0.011792673446808784,-7204
0.011815351664975724,-7831
0.011838029883142665,-8368
0.011860708101309604,-8768
0.011883386319476545,-9001
0.011906064537643484,-9078
0.011928742755810424,-8979
0.011951420973977365,-8690
0.011974099192144304,-8251
0.011996777410311243,-7746
0.012019455628478184,-7236
0.012042133846645124,-6703
0.012064812064812065,-6097
0.012087490282979004,-5393
0.012110168501145943,-4620
0.012132846719312885,-3811
0.012155524937479824,-2950
0.012178203155646765,-2008
0.012200881373813704,-997
0.012223559591980643,40
0.012246237810147585,1050
0.012268916028314524,2003
0.012291594246481463,2913
0.012314272464648404,3746
0.012336950682815344,4471
0.012359628900982285,5139
0.012382307119149224,5796
0.012404985337316163,6426
0.012427663555483104,6996
0.012450341773650044,7483
0.012473019991816983,7924
0.012495698209983924,8353
0.012518376428150863,8680
0.012541054646317804,8800
0.012563732864484744,8707
0.012586411082651683,8456
0.012609089300818624,8113
0.012631767518985563,7681
0.012654445737152504,7114
0.012677123955319444,6453
0.012699802173486383,5752
0.012722480391653324,5020
0.012745158609820263,4241
0.012767836827987203,3404
0.012790515046154144,2518
0.012813193264321083,1587
0.012835871482488024,590
0.012858549700654963,-474
0.012881227918821903,-1542
0.012903906136988844,-2543
0.012926584355155783,-3443
0.012949262573322722,-4255
0.012971940791489663,-4990
0.012994619009656603,-5639
0.013017297227823544,-6189
0.013039975445990483,-6671
0.013062653664157422,-7136
0.013085331882324363,-7611
0.013108010100491303,-8047
0.013130688318658244,-8386
0.013153366536825183,-8598
0.013176044754992122,-8679
0.013198722973159063,-8626
0.013221401191326003,-8419
0.013244079409492942,-8053
0.013266757627659883,-7582
0.013289435845826822,-7024
0.013312114063993763,-6374
0.013334792282160703,-5660
0.013357470500327642,-4924
0.013380148718494583,-4185
0.013402826936661522,-3420
0.013425505154828462,-2556
0.013448183372995403,-1576
0.013470861591162342,-548
0.013493539809329283,496
0.013516218027496222,1541
0.013538896245663162,2584
0.013561574463830103,3586
0.013584252681997042,4468
0.013606930900163983,5200
0.013629609118330922,5816
0.013652287336497862,6341
0.013674965554664803,6789
0.013697643772831742,7180
0.013720321990998681,7532
0.013743000209165622,7847
0.013765678427332562,8101
0.013788356645499503,8259
0.013811034863666442,8320
0.013833713081833381,8277
0.013856391300000322,8101
0.013879069518167262,7760
0.013901747736334201,7234
0.013924425954501142,6588
0.013947104172668081,5894
0.013969782390835022,5188
0.013992460609001962,4470
0.014015138827168901,3706
0.014037817045335842,2902
0.014060495263502781,2077
0.014083173481669722,1203
0.014105851699836662,245
0.014128529918003601,-775
0.014151208136170542,-1821
0.014173886354337481,-2844
0.01419656457250442,-3825
0.014219242790671362,-4750
0.014241921008838301,-5551
0.014264599227005242,-6192
0.014287277445172181,-6712
0.01430995566333912,-7169
0.014332633881506062,-7581
0.014355312099673001,-7895
0.01437799031783994,-8078
0.014400668536006881,-8190
0.01442334675417382,-8284
0.014446024972340762,-8323
0.014468703190507701,-8228
0.01449138140867464,-7960
0.014514059626841581,-7551
0.01453673784500852,-7039
0.014559416063175462,-6438
0.014582094281342401,-5760
0.01460477249950934,-5033
0.014627450717676281,-4284
0.01465012893584322,-3514
0.01467280715401016,-2702
0.014695485372177101,-1854
0.01471816359034404,-993
0.014740841808510981,-116
0.01476352002667792,792
0.01478619824484486,1764
0.014808876463011801,2778
0.01483155468117874,3753
0.01485423289934568,4628
0.01487691111751262,5415
0.01489958933567956,6122
0.014922267553846501,6726
0.01494494577201344,7200
0.01496762399018038,7524
0.01499030220834732,7757
0.01501298042651426,7943
0.015035658644681201,8070
0.01505833686284814,8124
0.01508101508101508,8094
0.01510369329918202,7967
0.01512637151734896,7717
0.0151490497355159,7311
0.01517172795368284,6748
0.01519440617184978,6103
0.01521708439001672,5399
0.01523976260818366,4619
0.0152624408263506,3764
0.01528511904451754,2881
0.01530779726268448,2039
0.015330475480851419,1248
0.01535315369901836,454
0.0153758319171853,-378
0.01539851013535224,-1238
0.01542118835351918,-2113
0.015443866571686119,-3000
0.01546654478985306,-3898
0.01548922300802,-4773
0.01551190122618694,-5587
0.01553457944435388,-6305
0.01555725766252082,-6899
0.01557993588068776,-7362
0.0156026140988547,-7696
0.01562529231702164,-7909
0.015647970535188578,-8042
0.01567064875335552,-8124
0.01569332697152246,-8138
0.015716005189689398,-8064
0.01573868340785634,-7881
0.01576136162602328,-7601
0.01578403984419022,-7245
0.01580671806235716,-6771
0.0158293962805241,-6155
0.01585207449869104,-5408
0.015874752716857978,-4566
0.01589743093502492,-3688
0.01592010915319186,-2800
0.015942787371358798,-1903
0.01596546558952574,-1031
0.01598814380769268,-209
0.016010822025859617,599
0.01603350024402656,1423
0.0160561784621935,2274
0.01607885668036044,3111
0.016101534898527378,3921
0.01612421311669432,4721
0.01614689133486126,5506
0.016169569553028198,6204
0.01619224777119514,6748
0.01621492598936208,7143
0.016237604207529018,7450
0.01626028242569596,7692
0.0162829606438629,7844
0.016305638862029837,7885
0.016328317080196778,7833
0.01635099529836372,7725
0.016373673516530657,7574
0.016396351734697598,7332
0.01641902995286454,6968
0.01644170817103148,6483
0.016464386389198418,5864
0.01648706460736536,5121
0.0165097428255323,4273
0.016532421043699237,3360
0.016555099261866178,2451
0.01657777748003312,1568
0.016600455698200057,677
0.016623133916366998,-204
0.01664581213453394,-1065
0.016668490352700877,-1878
0.016691168570867818,-2661
0.01671384678903476,-3458
0.0167365250072017,-4284
0.016759203225368637,-5079
0.01678188144353558,-5787
0.01680455966170252,-6396
0.016827237879869457,-6921
0.016849916098036398,-7355
0.01687259431620334,-7658
0.016895272534370277,-7813
0.016917950752537218,-7866
0.01694062897070416,-7853
0.016963307188871096,-7762
0.016985985407038037,-7591
0.01700866362520498,-7372
0.01703134184337192,-7130
0.017054020061538857,-6818
0.017076698279705798,-6368
0.01709937649787274,-5765
